"Time (s)","Linear Acceleration x (m/s^2)","Linear Acceleration y (m/s^2)","Linear Acceleration z (m/s^2)","Absolute acceleration (m/s^2)"
6.804074300E-2,1.486438632E0,-5.124273300E-1,6.619763374E-1,1.705958454E0
7.296652500E-2,1.146779060E0,-5.778102875E-1,5.551762581E-1,1.398995218E0
7.790444100E-2,8.359971046E-1,-6.242480278E-1,5.123653412E-1,1.162366122E0
8.285621200E-2,5.716578960E-1,-6.178841591E-1,4.162311554E-1,9.390537572E-1
8.782298300E-2,3.543052673E-1,-6.019287109E-1,2.594814301E-1,7.451046960E-1
9.280522300E-2,1.772129536E-1,-5.541672707E-1,2.147483826E-2,5.822086941E-1
9.780277500E-2,2.179288864E-2,-4.981956482E-1,-2.056756020E-1,5.394221789E-1
1.028149100E-1,-1.198840141E-1,-4.471750259E-1,-3.978738785E-1,6.104435304E-1
1.078402750E-1,-2.276463509E-1,-4.000792503E-1,-5.633101463E-1,7.274644930E-1
1.128770980E-1,-2.953824997E-1,-3.288989067E-1,-6.502046585E-1,7.862514928E-1
1.179231910E-1,-3.439531326E-1,-2.342023849E-1,-6.721496582E-1,7.905312629E-1
1.229761080E-1,-3.836503029E-1,-1.575565338E-1,-6.459240913E-1,7.676128894E-1
1.280331910E-1,-3.921661377E-1,-1.296648979E-1,-5.597944260E-1,6.956846014E-1
1.330917850E-1,-3.525030613E-1,-1.344604492E-1,-4.708652496E-1,6.033673043E-1
1.381221500E-1,-2.892167568E-1,-9.709262848E-2,-4.016847610E-1,5.044045581E-1
1.431160040E-1,-2.119135857E-1,-5.585050583E-2,-3.647975922E-1,4.255630741E-1
1.481098580E-1,-1.252496243E-1,-5.812168121E-3,-3.312883377E-1,3.542219818E-1
1.531037120E-1,-4.736757278E-2,2.532815933E-2,-3.054056168E-1,3.100932011E-1
1.580975660E-1,-5.578589439E-2,6.607246399E-2,-2.773280144E-1,2.904969261E-1
1.630914210E-1,-8.689475060E-2,1.161427498E-1,-1.773743629E-1,2.291320594E-1
1.680852750E-1,-1.488792896E-1,1.845970154E-1,-7.486343384E-3,2.372701968E-1
1.730791290E-1,-2.360520363E-1,2.753520012E-1,2.122526169E-1,4.202266790E-1
1.780729830E-1,-2.778921127E-1,2.995724678E-1,4.114551544E-1,5.798819137E-1
1.830668370E-1,-2.616438866E-1,2.451519966E-1,5.264139175E-1,6.369212176E-1
1.880606910E-1,-2.909348011E-1,1.605229378E-1,6.716480255E-1,7.493475443E-1
1.930545460E-1,-3.318765163E-1,8.335161209E-2,8.560395241E-1,9.218965127E-1
1.980484000E-1,-4.122831821E-1,5.036258698E-2,1.004356861E0,1.086851654E0
2.030422540E-1,-4.848010540E-1,8.350563049E-2,1.057183743E0,1.166037185E0
2.080361080E-1,-5.730552673E-1,1.297731400E-1,1.045028210E0,1.198881715E0
2.130299620E-1,-7.048494816E-1,1.934342384E-1,1.123476028E0,1.340308913E0
2.180238160E-1,-7.909088135E-1,2.086439133E-1,1.262234688E0,1.504096221E0
2.230176710E-1,-8.283476830E-1,1.905546188E-1,1.324293613E0,1.573602403E0
2.280115250E-1,-8.844034672E-1,1.586303711E-1,1.311263084E0,1.589573516E0
2.330053790E-1,-9.356682301E-1,1.413011551E-1,1.299456120E0,1.607490983E0
2.379992330E-1,-1.015340328E0,1.522707939E-1,1.330776215E0,1.680793774E0
2.429930870E-1,-1.085700750E0,1.629223824E-1,1.366621494E0,1.752981498E0
2.479869410E-1,-1.095380068E0,1.639132500E-1,1.397554398E0,1.783222740E0
2.529807960E-1,-1.031066418E0,2.163801193E-1,1.470740795E0,1.809142559E0
2.579746500E-1,-9.263100624E-1,2.067079544E-1,1.543452740E0,1.811911938E0
2.629685040E-1,-8.278539181E-1,1.454625130E-1,1.602036953E0,1.809150036E0
2.679623580E-1,-7.533717155E-1,7.584524155E-2,1.689354897E0,1.851281018E0
2.729562120E-1,-7.015521526E-1,5.420875549E-2,1.842770100E0,1.972540406E0
2.779500660E-1,-6.571676731E-1,7.010316849E-2,1.953379154E0,2.062152740E0
2.829439210E-1,-6.474633217E-1,1.227402687E-1,2.031746864E0,2.135946920E0
2.879377750E-1,-6.195080280E-1,2.300925255E-1,2.097584724E0,2.199225874E0
2.929316290E-1,-6.155853271E-1,3.205718994E-1,2.151318550E0,2.260505063E0
2.979254830E-1,-5.974111557E-1,4.180078506E-1,2.235582352E0,2.351480194E0
3.029193370E-1,-5.418848991E-1,5.080380440E-1,2.298149109E0,2.415208319E0
3.079131910E-1,-4.923655987E-1,5.626063347E-1,2.268667221E0,2.388681798E0
3.129070460E-1,-4.352076054E-1,5.824007988E-1,2.186057091E0,2.303788609E0
3.179009000E-1,-3.852996826E-1,6.106963158E-1,2.126057625E0,2.245334465E0
3.228947540E-1,-3.338212967E-1,6.476135254E-1,2.012478828E0,2.140306280E0
3.278886080E-1,-3.239989281E-1,6.933903694E-1,1.930403709E0,2.076589510E0
3.328824620E-1,-3.516492844E-1,6.822257042E-1,1.850387573E0,2.003253180E0
3.378763160E-1,-4.364700317E-1,6.435298920E-1,1.804659843E0,1.965053170E0
3.428701710E-1,-5.363707542E-1,5.355892181E-1,1.735438347E0,1.893751740E0
3.478640250E-1,-6.382048130E-1,3.924651146E-1,1.694404602E0,1.852657876E0
3.528578790E-1,-7.147510052E-1,2.288751602E-1,1.628723145E0,1.793318689E0
3.578517330E-1,-7.955572605E-1,3.566169739E-2,1.538332939E0,1.732238824E0
3.628455870E-1,-8.152587414E-1,-1.914367676E-1,1.413743019E0,1.643156771E0
3.678394410E-1,-8.366572857E-1,-4.424314499E-1,1.288106918E0,1.598424360E0
3.728332960E-1,-8.413305283E-1,-6.979975700E-1,1.170540810E0,1.601625253E0
3.778271500E-1,-7.352819443E-1,-9.671456814E-1,9.944877625E-1,1.570037011E0
3.828210040E-1,-6.002821922E-1,-1.164127350E0,7.887544632E-1,1.528942380E0
3.878148580E-1,-4.650230408E-1,-1.242127419E0,5.817995071E-1,1.448315442E0
3.928087120E-1,-3.436632156E-1,-1.287002325E0,4.063739777E-1,1.392702122E0
3.978025660E-1,-2.928860188E-1,-1.350207567E0,2.332983017E-1,1.401167653E0
4.027964210E-1,-3.307604790E-1,-1.406968594E0,-6.062793732E-2,1.446595612E0
4.077902750E-1,-4.131746292E-1,-1.432964325E0,-3.840465546E-1,1.539997333E0
4.127841290E-1,-8.461010456E-1,-1.536835194E0,-7.079381943E-1,1.891804926E0
4.177779830E-1,-9.425156116E-1,-1.603886604E0,-1.145020485E0,2.184458704E0
4.227718370E-1,-7.289459705E-1,-1.487884521E0,-9.839200974E-1,1.926982443E0
4.277656910E-1,-7.018346786E-1,-1.247716904E0,-4.162883759E-1,1.490860624E0
4.327595460E-1,-6.564064026E-1,-1.196709394E0,-7.005100250E-1,1.534176338E0
4.377534000E-1,-6.616353989E-1,-1.258254528E0,-8.407764435E-1,1.651626739E0
4.427472540E-1,-6.487381458E-1,-1.144901752E0,-2.502241135E-1,1.339504876E0
4.477411080E-1,-4.949338436E-1,-1.069009066E0,1.692304611E-1,1.190117154E0
4.527349620E-1,-2.826740742E-1,-1.060649395E0,3.067512512E-1,1.139727205E0
4.577288160E-1,6.756210327E-2,-1.035491109E0,1.707468033E-1,1.051646778E0
4.627226710E-1,2.661428452E-1,-9.904356003E-1,-5.053997040E-2,1.026814969E0
4.677165250E-1,3.021721840E-1,-8.515046835E-1,-8.086013794E-2,9.071420047E-1
4.727103790E-1,4.393686056E-1,-6.733826399E-1,-1.348829269E-1,8.152805378E-1
4.777042330E-1,5.170271397E-1,-5.100948811E-1,-3.196048737E-2,7.270043491E-1
4.826980870E-1,5.315145254E-1,-4.337680340E-1,3.020973206E-1,7.496166948E-1
4.876919410E-1,4.356180429E-1,-4.205482006E-1,7.556705475E-1,9.683294092E-1
4.926857960E-1,2.243158817E-1,-4.893580675E-1,1.246590614E0,1.357857538E0
4.976796500E-1,-4.142439365E-2,-6.254571676E-1,1.584490776E0,1.703972907E0
5.026735040E-1,-3.484491110E-1,-7.948466539E-1,1.666226387E0,1.878698581E0
5.076673580E-1,-6.305679083E-1,-9.257457256E-1,1.678956032E0,2.018294922E0
5.126612120E-1,-4.569077492E-1,-9.845662117E-1,1.874301910E0,2.165904653E0
5.176550660E-1,-1.395855904E0,-4.732048512E-1,1.330655098E0,1.985693714E0
5.226489210E-1,-2.343028307E0,-5.335947275E-1,7.806978226E-1,2.526656698E0
5.276427750E-1,-2.830300808E0,-6.562030315E-1,5.422077179E-1,2.955536210E0
5.326366290E-1,-2.992628098E0,-8.009923697E-1,4.982156754E-1,3.137774779E0
5.376304830E-1,-2.927437782E0,-1.084604144E0,6.227235794E-1,3.183401133E0
5.426243370E-1,-2.827618599E0,-1.522916555E0,8.660717010E-1,3.326376703E0
5.476181910E-1,-1.482244492E0,-2.150511742E0,1.605672836E0,3.065931301E0
5.526120460E-1,-1.059683204E0,-2.992232800E0,3.447333336E0,4.686202380E0
5.576059000E-1,-8.797793388E-1,-3.512895584E0,2.451735497E0,4.373265829E0
5.625997540E-1,-8.988134861E-1,-3.698888779E0,1.158798218E0,3.979002034E0
5.675936080E-1,-1.212563872E0,-3.484558582E0,-5.411815643E-2,3.689903580E0
5.725874620E-1,-2.353734970E0,-1.974717021E0,-2.217125893E0,3.788828691E0
5.775813160E-1,-2.567991734E0,-2.188441753E0,-8.939161301E-1,3.490407555E0
5.825751710E-1,-2.613525629E0,-2.212234974E0,-2.297592163E-1,3.431805515E0
5.875690250E-1,-2.654042482E0,-2.119591475E0,1.279649734E-1,3.398968160E0
5.925628790E-1,-2.804279566E0,-1.907656670E0,-8.350372314E-2,3.392655409E0
5.975567330E-1,-2.991652727E0,-1.721036792E0,-3.033733368E-1,3.464677339E0
6.025505870E-1,-3.139130592E0,-1.546675444E0,-3.269300461E-1,3.514716071E0
6.075444410E-1,-3.284019947E0,-1.443022609E0,-3.167362213E-1,3.601030838E0
6.125382960E-1,-3.415148258E0,-1.563080788E0,-3.817653656E-1,3.775209129E0
6.175321500E-1,-3.492269993E0,-1.502928376E0,-4.069709778E-1,3.823659083E0
6.225260040E-1,-3.484908581E0,-1.474933505E0,-2.545681000E-1,3.792732732E0
6.275198580E-1,-3.225790024E0,-1.509329796E0,9.802436829E-2,3.562780724E0
6.325137120E-1,-2.607466221E0,-1.716804981E0,6.255807877E-1,3.183967770E0
6.375076180E-1,-1.791231155E0,-2.069143295E0,1.307693481E0,3.033137859E0
6.425015250E-1,-1.071496725E0,-2.329187632E0,1.687009811E0,3.069075163E0
6.474954310E-1,-5.076642036E-1,-2.460856676E0,1.775226593E0,3.076518809E0
6.524893370E-1,-7.251042128E-2,-2.461342573E0,1.474620819E0,2.870186681E0
6.574832430E-1,2.051278353E-1,-2.394162655E0,9.305114746E-1,2.576808850E0
6.624771500E-1,3.830705285E-1,-2.317441225E0,2.775850296E-1,2.365233669E0
6.674710560E-1,5.051618218E-1,-2.260193586E0,-2.554531097E-1,2.330004250E0
6.724649620E-1,6.579322815E-1,-2.236736059E0,-7.077083588E-1,2.436537339E0
6.774588680E-1,8.274067044E-1,-2.218451023E0,-1.189244270E0,2.649609166E0
6.824527750E-1,1.033090591E0,-2.219543457E0,-1.600172997E0,2.924756904E0
6.874466810E-1,1.246877670E0,-2.220730066E0,-1.945882797E0,3.205121809E0
6.924405870E-1,1.412351847E0,-2.221826077E0,-2.203177452E0,3.432963696E0
6.974344930E-1,1.521195889E0,-2.203586102E0,-2.382269859E0,3.583997534E0
7.024284000E-1,1.536785960E0,-2.132428408E0,-2.517048836E0,3.639298949E0
7.074223060E-1,1.437167764E0,-2.032062054E0,-2.650650024E0,3.636024329E0
7.124162120E-1,1.210303068E0,-1.873629093E0,-2.806882381E0,3.585234748E0
7.174101180E-1,8.539897799E-1,-1.609515786E0,-2.971346378E0,3.485504111E0
7.224040250E-1,4.182535708E-1,-1.311408043E0,-3.048904896E0,3.345227671E0
7.273979310E-1,1.416663826E-2,-1.022071123E0,-3.030626774E0,3.198363443E0
7.323918370E-1,-2.964949012E-1,-7.888951302E-1,-2.888556957E0,3.008990869E0
7.373857430E-1,-5.248319507E-1,-6.493849158E-1,-2.604375839E0,2.734944763E0
7.423796500E-1,-7.306337953E-1,-5.837345719E-1,-2.364323616E0,2.542557365E0
7.473735560E-1,-1.046396971E0,-8.089876175E-1,-3.413914680E0,3.661177547E0
7.523674620E-1,-8.274844289E-1,-1.039958239E0,-3.128683090E0,3.399250137E0
7.573613680E-1,-1.118217856E-1,-1.189468503E0,-1.293960571E0,1.761156833E0
7.623552750E-1,2.913670838E-1,-1.257035732E0,-3.504533768E-1,1.337105523E0
7.673491810E-1,2.641156912E-1,-1.118680477E0,3.165416718E-1,1.192225540E0
7.723430870E-1,4.725754261E-2,-8.750697970E-1,7.277164459E-1,1.139101247E0
7.773369930E-1,-1.706368029E-1,-5.695732832E-1,8.417558670E-1,1.030574395E0
7.823309000E-1,-3.810769618E-1,-2.550460696E-1,6.414232254E-1,7.884744146E-1
7.873248060E-1,-5.837709904E-1,3.955674171E-2,3.760595322E-1,6.955386954E-1
7.923187120E-1,-7.539934516E-1,2.377017736E-1,1.555070877E-1,8.057237198E-1
7.973126180E-1,-8.238458037E-1,2.871527672E-1,-9.657478333E-2,8.777843179E-1
8.023064730E-1,-8.114007115E-1,1.789609194E-1,-3.703842163E-1,9.097156660E-1
8.073003270E-1,-7.585921884E-1,-5.258703232E-2,-6.276788712E-1,9.860062218E-1
8.122941810E-1,-6.695482135E-1,-3.921512365E-1,-7.353591919E-1,1.069032527E0
8.172880350E-1,-5.780659318E-1,-6.243621707E-1,-7.135334015E-1,1.110458579E0
8.222818890E-1,-5.375192165E-1,-6.539251804E-1,-6.822080612E-1,1.087176567E0
8.272757430E-1,-5.682791471E-1,-5.049818754E-1,-6.988620758E-1,1.032645188E0
8.322695980E-1,-6.427184343E-1,-3.064070940E-1,-7.872705460E-1,1.061492914E0
8.372634520E-1,-6.993237138E-1,-1.532831192E-1,-1.013810158E0,1.241112568E0
8.422573060E-1,-5.950496793E-1,-1.593172550E-1,-1.296826363E0,1.435696599E0
8.472511600E-1,-5.199914575E-1,-2.615398169E-1,-1.716909409E0,1.812890540E0
8.522450140E-1,-3.243535161E-1,-3.689259291E-1,-2.092310905E0,2.149203683E0
8.572388680E-1,1.648402214E-2,-4.625079632E-1,-2.304256916E0,2.350273447E0
8.622327230E-1,3.121044040E-1,-5.807015896E-1,-2.410789013E0,2.499305335E0
8.672265770E-1,4.633359909E-1,-6.425980330E-1,-2.555320263E0,2.675308229E0
8.722204310E-1,6.716358066E-1,-6.821748018E-1,-2.713768005E0,2.877671612E0
8.772142850E-1,8.418647647E-1,-7.904428244E-1,-2.871696472E0,3.095186064E0
8.822081390E-1,6.843786240E-1,-8.532348871E-1,-3.128986359E0,3.314655262E0
8.872019930E-1,5.875988007E-1,-9.427006245E-1,-3.365932941E0,3.544497339E0
8.921958480E-1,4.898416996E-1,-1.073337436E0,-3.406419277E0,3.604953597E0
8.971897020E-1,2.388470769E-1,-1.083299041E0,-3.480056286E0,3.652584905E0
9.021835560E-1,1.875987053E-1,-1.140129209E0,-3.605678558E0,3.786291821E0
9.071774100E-1,1.679616570E-1,-1.176963687E0,-3.659214973E0,3.847506837E0
9.121712640E-1,5.513256788E-2,-1.108273745E0,-3.717289925E0,3.879375552E0
9.171651180E-1,9.637930989E-2,-1.010953784E0,-3.837037086E0,3.969152319E0
9.221589730E-1,1.044735014E-1,-8.616602421E-1,-3.979981899E0,4.073527833E0
9.271528270E-1,1.362947822E-1,-7.229450941E-1,-4.079261303E0,4.145069198E0
9.321466810E-1,4.863998294E-2,-6.140999794E-1,-4.201713085E0,4.246631310E0
9.371405350E-1,-2.919554710E-2,-4.874820709E-1,-4.285254955E0,4.312992138E0
9.421343890E-1,-6.849002838E-2,-4.004714489E-1,-4.296703339E0,4.315869304E0
9.471282430E-1,-1.312003136E-1,-3.479781151E-1,-4.303132057E0,4.319172119E0
9.521220980E-1,-1.790075898E-1,-3.440365791E-1,-4.333145142E0,4.350465688E0
9.571159520E-1,-1.786205769E-1,-3.834161758E-1,-4.324748039E0,4.345383628E0
9.621098060E-1,-3.021713495E-1,-3.657565117E-1,-4.211508751E0,4.238147155E0
9.671036600E-1,-3.875359297E-1,-3.246841431E-1,-4.103551865E0,4.134578793E0
9.720975140E-1,-5.209697485E-1,-3.794453144E-1,-4.129455566E0,4.179448708E0
9.770913680E-1,-6.536284089E-1,-4.335174561E-1,-4.703109264E0,4.768060846E0
9.820852230E-1,-6.980027556E-1,-4.995305538E-1,-4.574044704E0,4.653882635E0
9.870790770E-1,-7.413647771E-1,-4.620637894E-1,-3.350891113E0,3.462888380E0
9.920729310E-1,-8.296856284E-1,-2.790560722E-1,-2.830548763E0,2.962812319E0
9.970667850E-1,-9.728736281E-1,-1.709544659E-1,-3.123626709E0,3.276087963E0
1.002060639E0,-1.154150724E0,-2.139234543E-1,-3.168156624E0,3.378615624E0
1.007054493E0,-1.499742746E0,-4.833672047E-1,-2.593675137E0,3.034801950E0
1.012048348E0,-1.636744499E0,-6.354439259E-1,-1.436492443E0,2.268530819E0
1.017042202E0,-1.715825200E0,-6.338224411E-1,-4.567670822E-1,1.885317791E0
1.022036056E0,-1.834545016E0,-4.808831215E-1,1.657571793E-1,1.903754038E0
1.027029910E0,-1.822004080E0,-1.983473301E-1,6.002235413E-1,1.928550966E0
1.032023764E0,-1.560035229E0,1.018426418E-1,1.105443954E0,1.914703156E0
1.037017618E0,-1.202696800E0,3.089075089E-1,1.614779472E0,2.037011582E0
1.042011473E0,-7.935775518E-1,4.322006702E-1,2.071323395E0,2.259854720E0
1.047005327E0,-4.328567386E-1,5.100905895E-1,2.423103333E0,2.513759560E0
1.051999181E0,-7.205951214E-2,6.382055283E-1,2.580229759E0,2.658963046E0
1.056993035E0,3.328483105E-1,1.255891085E0,2.371895790E0,2.704429709E0
1.061986889E0,6.780490875E-1,2.364672661E0,1.789134026E0,3.041780386E0
1.066980743E0,9.994348288E-1,2.751034737E0,1.080240250E0,3.119932867E0
1.071974598E0,1.243792653E0,2.801432371E0,2.738904953E-1,3.077346178E0
1.076968452E0,1.506061912E0,2.432463646E0,-1.816883087E-1,2.866725050E0
1.081962306E0,1.617000580E0,2.065545082E0,1.455230713E-1,2.627231304E0
1.086956160E0,1.414990067E0,1.848129511E0,1.142269135E0,2.592789686E0
1.091950014E0,9.465507269E-1,1.793220997E0,2.314620018E0,3.077184695E0
1.096943868E0,3.907141685E-1,1.904077053E0,3.361646652E0,3.883147589E0
1.101937723E0,-9.799528122E-2,1.969291449E0,4.260330200E0,4.694478171E0
1.106931577E0,-4.033499360E-1,1.959386110E0,5.025957108E0,5.409448211E0
1.111925431E0,-4.946504831E-1,1.792474508E0,5.568948746E0,5.871186771E0
1.116919285E0,-4.214698076E-1,1.487291813E0,5.947872162E0,6.145474513E0
1.121913139E0,-2.753441930E-1,1.124441624E0,6.159114838E0,6.266967287E0
1.126906993E0,-1.229627132E-1,8.034641743E-1,6.256234169E0,6.308814507E0
1.131900848E0,1.262342930E-2,5.283114910E-1,6.249615669E0,6.271919036E0
1.136894702E0,6.578028202E-2,3.173940182E-1,6.173397064E0,6.181900785E0
1.141888556E0,4.241365194E-2,1.368875504E-1,5.994699478E0,5.996412173E0
1.146882410E0,-1.845723391E-2,-3.707647324E-2,5.690193176E0,5.690343902E0
1.151876264E0,-5.455082655E-2,-2.277867794E-1,5.326975822E0,5.332122844E0
1.156870118E0,-8.514219522E-2,-4.582839012E-1,4.971752167E0,4.993555140E0
1.161863973E0,-1.011210680E-1,-7.418024540E-1,4.595455170E0,4.656039580E0
1.166857827E0,-2.552952766E-1,-1.124887943E0,3.964131355E0,4.128545260E0
1.171851681E0,-4.365347624E-1,-1.362792730E0,3.369246483E0,3.660544835E0
1.176845535E0,-5.631142855E-1,-1.398059130E0,3.148777008E0,3.490911582E0
1.181839389E0,-6.413789988E-1,-1.197678566E0,3.095677376E0,3.380683272E0
1.186833243E0,-7.886375189E-1,-8.672358990E-1,2.803439140E0,3.038637565E0
1.191827098E0,-8.971705437E-1,-4.975249767E-1,2.458509445E0,2.663965987E0
1.196820952E0,-8.733876944E-1,-1.356034279E-1,2.370351791E0,2.529775083E0
1.201814806E0,-6.291946173E-1,2.386026382E-1,2.494132996E0,2.583315019E0
1.206808660E0,-1.869289875E-1,6.356501579E-1,2.546692848E0,2.631470698E0
1.211802514E0,3.602015376E-1,1.027694225E0,2.580056190E0,2.800462554E0
1.216796368E0,9.776138663E-1,1.391591549E0,2.684474945E0,3.177839147E0
1.221790223E0,1.607824326E0,1.742394447E0,2.802224159E0,3.670626338E0
1.226784077E0,2.232810020E0,2.094944000E0,2.871340752E0,4.197478846E0
1.231777931E0,2.816416502E0,2.397134781E0,2.949547768E0,4.730569638E0
1.236771785E0,3.356964588E0,2.658823967E0,2.999182701E0,5.228159620E0
1.241765639E0,3.834294081E0,2.884811401E0,3.011471748E0,5.665060460E0
1.246759493E0,4.223699570E0,3.041302204E0,3.035017014E0,6.024988417E0
1.251753348E0,4.443012714E0,3.127762318E0,3.051429749E0,6.231731911E0
1.256747202E0,4.495849609E0,3.152977467E0,3.013734818E0,6.263906781E0
1.261741056E0,4.390136242E0,3.111324787E0,2.984730721E0,6.153231316E0
1.266734910E0,4.223473549E0,3.206760883E0,3.007909775E0,6.096602775E0
1.271728764E0,4.102314949E0,3.294163704E0,2.945363045E0,6.029565981E0
1.276722618E0,3.969958544E0,3.038194180E0,2.874315262E0,5.766531274E0
1.281716473E0,3.688053608E0,2.658255577E0,2.757123947E0,5.316934698E0
1.286710327E0,3.189516544E0,2.425479412E0,2.599159241E0,4.776148545E0
1.291704181E0,2.468873262E0,2.385859489E0,2.439123154E0,4.211529704E0
1.296698087E0,1.711231828E0,2.365766525E0,2.239285469E0,3.679614794E0
1.301691993E0,1.081599593E0,2.264094353E0,1.933311462E0,3.167597533E0
1.306685900E0,6.108732820E-1,2.066083908E0,1.498005867E0,2.624098028E0
1.311679806E0,2.869884670E-1,1.886269569E0,9.529848099E-1,2.132734235E0
1.316673712E0,5.027145147E-2,1.729290009E0,3.319740295E-1,1.761583920E0
1.321667618E0,-1.345232427E-1,1.557298183E0,-3.793249130E-1,1.608465581E0
1.326661525E0,-2.112428546E-1,1.385177612E0,-1.099785805E0,1.781255001E0
1.331655431E0,-2.000776529E-1,1.204219341E0,-1.810729027E0,2.183784536E0
1.336649337E0,-2.163340747E-1,1.215687275E0,-2.417230606E0,2.714350712E0
1.341643243E0,-1.790264845E-1,9.713854790E-1,-2.920134068E0,3.082664952E0
1.346637150E0,1.359241307E-1,5.588884354E-1,-3.415587425E0,3.463678552E0
1.351631056E0,5.133951902E-1,1.225953102E-1,-3.889595509E0,3.925246164E0
1.356624962E0,8.634124994E-1,-2.508718967E-1,-4.266186714E0,4.359904464E0
1.361618868E0,1.115543365E0,-5.420031548E-1,-4.526906013E0,4.693727993E0
1.366612775E0,1.256883860E0,-7.410533428E-1,-4.681920528E0,4.904008251E0
1.371606681E0,1.245533347E0,-9.050123692E-1,-4.793891430E0,5.035056678E0
1.376600587E0,1.120871067E0,-1.071831226E0,-4.877428532E0,5.118054631E0
1.381594493E0,8.839861155E-1,-1.231814623E0,-4.846804142E0,5.078416004E0
1.386588400E0,5.976346135E-1,-1.399498224E0,-4.716645718E0,4.956057832E0
1.391582306E0,2.952101827E-1,-1.560838699E0,-4.515807152E0,4.787053450E0
1.396576212E0,4.305103421E-2,-1.716161966E0,-4.354156494E0,4.680357258E0
